time,angle
0,0.0
10,0.009422177868729627
20,0.018835355599111654
30,0.02823619373173527
40,0.037621359195157335
50,0.04698752648643686
60,0.056331378848271975
70,0.06564960944232305
80,0.07493892251830746
90,0.08419603457845298
100,0.09341767553689893
110,0.10260058987363606
120,0.11174153778257832
130,0.1208372963133624
140,0.12988466050647263
150,0.13888044452129233
160,0.14782148275668466
170,0.15670463096370937
180,0.16552676735008498
190,0.17428479367600877
200,0.1829756363409501
210,0.19159624746103662
220,0.20014360593665625
230,0.20861471850990093
240,0.21700662081148325
250,0.2253163783967596
260,0.23354108777049842
270,0.24167787740003635
280,0.2497239087164693
290,0.2576763771035291
300,0.2655325128738027
310,0.27328958223195454
320,0.2809448882246165
330,0.2884957716766174
340,0.2959396121132262
350,0.3032738286680911
360,0.31049588097655884
370,0.31760327005406663
380,0.3245935391593037
390,0.33146427464184347
400,0.3382131067739561
410,0.3448377105663149
420,0.35133580656731533
430,0.35770516164573407
440,0.36394358975645863
450,0.37004895268902643
460,0.37601916079871756
470,0.38185217371995095
480,0.3875460010617432
490,0.39309870308499073
500,0.39850839136134875
510,0.40377322941348076
520,0.4088914333364652
530,0.41386127240014775
540,0.41868106963223656
550,0.42334920238194756
560,0.4278641028640065
570,0.4322242586828311
580,0.4364282133367156
590,0.44047456670185176
600,0.44436197549602646
610,0.4480891537218434
620,0.4516548730893226
630,0.4550579634177423
640,0.45829731301658944
650,0.46137186904549987
660,0.4642806378530689
670,0.46702268529442836
680,0.4695971370274872
690,0.4720031787877442
700,0.47424005664158864
710,0.47630707721801047
720,0.47820360791865146
730,0.47992907710613625
740,0.48148297427062725
750,0.4828648501745603
760,0.4840743169755198
770,0.4851110483272251
780,0.4859747794586036
790,0.4866653072309372
800,0.4871824901730737
810,0.48752624849470394
820,0.4876965640777144
830,0.4876934804456297
840,0.4875171027111699
850,0.48716759750195454
860,0.4866451928643929
870,0.4859501781458068
880,0.4850829038548424
890,0.48404378150023164
900,0.48283328340797643
910,0.4814519425170299
920,0.47990035215356425
930,0.4781791657839138
940,0.47628909674629843
950,0.4742309179614314
960,0.47200546162213025
970,0.4696136188620511
980,0.46705633940367863
990,0.4643346311857079
1000,0.46144955996996345
1010,0.4584022489280077
1020,0.4551938782075965
1030,0.45182568447915045
1040,0.44829896046241235
1050,0.4446150544334728
1060,0.4407753697123501
1070,0.4367813641313184
1080,0.4326345494841842
1090,0.42833649095671905
1100,0.4238888065384616
1110,0.4192931664161093
1120,0.41455129234872623
1130,0.4096649570250001
1140,0.40463598340278845
1150,0.39946624403119624
1160,0.39415766035544186
1170,0.3887122020047623
1180,0.3831318860636254
1190,0.3774187763265168
1200,0.3715749825365758
1210,0.36560265960835925
1220,0.35950400683502404
1230,0.3532812670802118
1240,0.34693672595493874
1250,0.3404727109797883
1260,0.3338915907327153
1270,0.32719577398277055
1280,0.32038770881006595
1290,0.3134698817122956
1300,0.3064448166981451
1310,0.29931507436791377
1320,0.29208325098168475
1330,0.28475197751538683
1340,0.27732391870508194
1350,0.2698017720798327
1360,0.2621882669834968
1370,0.2544861635858035
1380,0.24669825188306763
1390,0.23882735068890862
1400,0.23087630661533085
1410,0.22284799304454
1420,0.21474530909186268
1430,0.2065711785601454
1440,0.19832854888600548
1450,0.1900203900783207
1460,0.18164969364932948
1470,0.17321947153873687
1480,0.16473275503120255
1490,0.1561925936676071
1500,0.14760205415048308
1510,0.13896421924400496
1520,0.13028218666893127
1530,0.12155906799289508
1540,0.11279798751644082
1550,0.10400208115520188
1560,0.09517449531862623
1570,0.08631838578564106
1580,0.07743691657766544
1590,0.0685332588293691
1600,0.059610589657582154
1610,0.050672091028754536
1620,0.04172094862537653
1630,0.0327603507117539
1640,0.023793486999549113
1650,0.014823547513487675
1660,0.005853721457633789
1670,-0.0031128039173624763
1680,-0.01207284444564312
1690,-0.021023220175748713
1700,-0.02996075649804444
1710,-0.038882285269576794
1720,-0.04778464593595549
1730,-0.056664686649864036
1740,-0.06551926538580934
1750,-0.07434525105070941
1760,-0.08313952458993175
1770,-0.09189898008838877
1780,-0.1006205258663074
1790,-0.10930108556927766
1800,-0.1179375992522068
1810,-0.12652702445678918
1820,-0.13506633728211742
1830,-0.14355253344805594
1840,-0.15198262935100745
1850,-0.16035366311169447
1860,-0.16866269561459737
1870,-0.17690681153867713
1880,-0.1850831203790259
1890,-0.19318875745908626
1900,-0.2012208849330858
1910,-0.2091766927783352
1920,-0.2170533997770475
1930,-0.22484825448732823
1940,-0.23255853620300698
1950,-0.24018155590196993
1960,-0.2477146571826632
1970,-0.25515521718844647
1980,-0.2625006475194699
1990,-0.26974839513176124
2000,-0.2768959432232094
2010,-0.28394081210613986
2020,-0.2908805600661776
2030,-0.29771278420710107
2040,-0.3044351212813974
2050,-0.31104524850622756
2060,-0.31754088436452776
2070,-0.32391978939096383
2080,-0.33017976694247214
2090,-0.33631866395312204
2100,-0.3423343716730419
2110,-0.3482248263911535
2120,-0.3539880101414691
2130,-0.3596219513927097
2140,-0.3651247257210113
2150,-0.3704944564654853
2160,-0.3757293153664172
2170,-0.3808275231858816
2180,-0.38578735031056455
2190,-0.39060711733659514
2200,-0.39528519563618014
2210,-0.39982000790585825
2220,-0.404210028696188
2230,-0.40845378492269274
2240,-0.41254985635788965
2250,-0.41649687610424463
2260,-0.42029353104789013
2270,-0.4239385622929619
2280,-0.4274307655764089
2290,-0.4307689916631403
2300,-0.4339521467213821
2310,-0.4369791926781236
2320,-0.4398491475545352
2330,-0.442561085781253
2340,-0.445114138493431
2350,-0.44750749380546634
2360,-0.4497403970653123
2370,-0.45181215108830236
2380,-0.4537221163704136
2390,-0.4554697112809049
2400,-0.4570544122342771
2410,-0.45847575384150235
2420,-0.4597333290404843
2430,-0.4608267892057142
2440,-0.46175584423709626
2450,-0.4625202626279236
2460,-0.46311987151199313
2470,-0.46355455668985424
2480,-0.46382426263419657
2490,-0.4639289924743843
2500,-0.46386880796015867
2510,-0.463643829404531
2520,-0.46325423560590057
2530,-0.4627002637494371
2540,-0.46198220928777545
2550,-0.46110042580107735
2560,-0.46005532483652195
2570,-0.4588473757272946
2580,-0.4574771053911514
2590,-0.45594509810864164
2600,-0.454251995281081
2610,-0.45239849516837205
2620,-0.4503853526067783
2630,-0.44821337870676403
2640,-0.4458834405310192
2650,-0.4433964607527942
2660,-0.44075341729468076
2670,-0.43795534294797633
2680,-0.4350033249727809
2690,-0.4318985046789764
2700,-0.42864207698825546
2710,-0.4252352899773585
2720,-0.42167944440269983
2730,-0.41797589320655854
2740,-0.41412604100502165
2750,-0.4101313435578733
2760,-0.4059933072206302
2770,-0.4017134883789233
2780,-0.3972934928654447
2790,-0.3927349753596731
2800,-0.38803963877060077
2810,-0.38320923360269527
2820,-0.37824555730532694
2830,-0.37315045360590643
2840,-0.3679258118269777
2850,-0.36257356618752046
2860,-0.3570956950887146
2870,-0.35149422038443684
2880,-0.3457712066367543
2890,-0.3399287603566876
2900,-0.333969029230523
2910,-0.3278942013319591
2920,-0.32170650432037473
2930,-0.31540820462551045
2940,-0.3090016066188624
2950,-0.3024890517720934
2960,-0.2958729178027623
2970,-0.28915561780769
2980,-0.2823395993842707
2990,-0.27542734374005196
3000,-0.268421364790906
3010,-0.2613242082481207
3020,-0.2541384506947381
3030,-0.24686669865147676
3040,-0.23951158763257996
3050,-0.23207578119192282
3060,-0.22456196995973293
3070,-0.21697287067026427
3080,-0.20931122518077913
3090,-0.201579799482192
3100,-0.19378138270173403
3110,-0.18591878609798726
3120,-0.17799484204866475
3130,-0.17001240303149115
3140,-0.1619743405985513
3150,-0.15388354434447588
3160,-0.14574292086883847
3170,-0.13755539273312684
3180,-0.12932389741267403
3190,-0.12105138624391451
3200,-0.11274082336734707
3210,-0.10439518466658348
3220,-0.09601745670386089
3230,-0.08761063565239664
3240,-0.079177726225968
3250,-0.0707217406061031
3260,-0.06224569736725619
3270,-0.05375262040036148
3280,-0.04524553783514004
3290,-0.03672748096154707
3300,-0.02820148315074501
3310,-0.019670578775984212
3320,-0.011137802133773416
3330,-0.002606186365724172
3340,0.005921237618543992
3350,0.014441442217062757
3360,0.022951404209353234
3370,0.0314481058280615
3380,0.03992853582801356
3390,0.04838969055231314
3400,0.0568285749951038
3410,0.06524220386061563
3420,0.07362760261813184
3430,0.0819818085524936
3440,0.0903018718097744
3450,0.09858485643776445
3460,0.10682784142088347
3470,0.11502792170916798
3480,0.12318220924096869
3490,0.13128783395899868
3500,0.13934194481937032
3510,0.14734171079327654
3520,0.15528432186095353
3530,0.16316698999758547
3540,0.1709869501508019
3550,0.17874146120942472
3560,0.18642780696312425
3570,0.19404329705265924
3580,0.20158526791035306
3590,0.2090510836904882
3600,0.2164381371892937
3610,0.22374385075420242
3620,0.23096567718205943
3630,0.23810110060597647
3640,0.2451476373705163
3650,0.25210283689490426
3660,0.2589642825239762
3670,0.26572959236655386
3680,0.2723964201209671
3690,0.2789624558874351
3700,0.2854254269670258
3710,0.29178309864691376
3720,0.2980332749716744
3730,0.30417379950033807
3740,0.3102025560489528
3750,0.31611746941839597
3760,0.3219165061071852
3770,0.3275976750090444
3780,0.3331590280949883
3790,0.3385986610796907
3800,0.343914714071908
3810,0.3491053722087369
3820,0.35416886627349553
3830,0.35910347329700965
3840,0.3639075171421059
3850,0.36857936907111444
3860,0.37311744829618787
3870,0.37752022251225026
3880,0.3817862084124007
3890,0.38591397218559575
3900,0.38990212999644447
3910,0.39374934844696063
3920,0.3974543450201123
3930,0.4010158885050265
3940,0.40443279940370896
3950,0.40770395031914297
3960,0.410828266324642
3970,0.4138047253143371
3980,0.4166323583346838
3990,0.4193102498968833
4000,0.4218375382701193
4010,0.42421341575551447
4020,0.42643712894072555
4030,0.4285079789350934
4040,0.4304253215852798
4050,0.4321885676713246
4060,0.4337971830830641
4070,0.43525068897686325
4080,0.4365486619126123
4090,0.4376907339709579
4100,0.4386765928507329
4110,0.43950598194656465
4120,0.4401787004066472
4130,0.44069460317066594
4140,0.44105360098787566
4150,0.4412556604153366
4160,0.44130080379631986
4170,0.44118910921890375
4180,0.44092071045478715
4190,0.4404957968783513
4200,0.43991461336601456
4210,0.43917746017592374
4220,0.43828469280803994
4230,0.4372367218446772
4240,0.4360340127715658
4250,0.4346770857795117
4260,0.4331665155467375
4270,0.43150293100199255
4280,0.4296870150685268
4290,0.4277195043890333
4300,0.42560118903166605
4310,0.4233329121772503
4320,0.4209155697878088
4330,0.418350110256529
4340,0.4156375340393138
4350,0.41277889326804845
4360,0.4097752913457397
4370,0.4066278825236804
4380,0.4033378714607969
4390,0.3999065127653492
4400,0.39633511051916115
4410,0.39262501778454895
4420,0.3887776360941483
4430,0.38479441492381966
4440,0.38067685114883415
4450,0.37642648848354526
4460,0.37204491690475017
4470,0.3675337720589599
4480,0.36289473465379624
4490,0.3581295298337408
4500,0.3532399265404718
4510,0.34822773685801806
4520,0.3430948153429756
4530,0.33784305834004064
4540,0.33247440328309213
4550,0.3269908279821056
4560,0.3213943498961402
4570,0.3156870253926727
4580,0.30987094899355544
4590,0.30394825260786623
4600,0.29792110475192785
4610,0.2917917097567988
4620,0.2855623069635015
4630,0.2792351699063025
4640,0.27281260548432595
4650,0.26629695312181073
4660,0.25969058391731387
4670,0.2529958997821697
4680,0.2462153325685132
4690,0.2393513431871956
4700,0.23240642071589135
4710,0.22538308149774625
4720,0.21828386823086315
4730,0.21111134904897674
4740,0.20386811659364404
4750,0.1965567870782738
4760,0.18917999934435106
4770,0.18174041391018358
4780,0.1742407120125096
4790,0.1666835946413314
4800,0.1590717815682992
4810,0.1514080103690047
4820,0.14369503543954099
4830,0.1359356270076685
4840,0.12813257013895202
4850,0.12028866373822124
4860,0.11240671954670957
4870,0.10448956113524002
4880,0.09654002289380466
4890,0.08856094901790904
4900,0.08055519249204075
4910,0.07252561407062068
4920,0.06447508125681234
4930,0.056406467279538776
4940,0.04832265006907868
4950,0.04022651123161307
4960,0.03212093502307352
4970,0.02400880732266812
4980,0.015893014606446355
4990,0.007776442921263831
5000,-0.0003380231404773563
5010,-0.00844750146496405
5020,-0.01654911343960856
5030,-0.024639984973827626
5040,-0.032717247517606025
5050,-0.040778039077472746
5060,-0.04881950522954484
5070,-0.05683880012927447
5080,-0.06483308751753121
5090,-0.07279954172268902
5100,-0.08073534865834237
5110,-0.08863770681630366
5120,-0.0965038282545457
5130,-0.10433093957972063
5140,-0.11211628292392357
5150,-0.11985711691536076
5160,-0.12755071764255918
5170,-0.13519437961180802
5180,-0.1427854166974697
5190,-0.15032116308484644
5200,-0.1577989742052605
5210,-0.1652162276630248
5220,-0.17257032415397755
5230,-0.1798586883752645
5240,-0.18707876992603878
5250,-0.19422804419878315
5260,-0.20130401326091854
5270,-0.2083042067264186
5280,-0.21522618261710622
5290,-0.2220675282133366
5300,-0.2288258608937785
5310,-0.2354988289639964
5320,-0.2420841124735411
5330,-0.24857942402127559
5340,-0.25498250954864976
5350,-0.26129114912065055
5360,-0.2675031576941619
5370,-0.2736163858734587
5380,-0.27962872065258737
5390,-0.285538086144367
5400,-0.2913424442957636
5410,-0.2970397955893942
5420,-0.3026281797309113
5430,-0.3081056763220425
5440,-0.3134704055190507
5450,-0.31872052867637995
5460,-0.32385424897529014
5470,-0.3288698120372378
5480,-0.3337655065218171
5490,-0.33853966470904784
5500,-0.3431906630658104
5510,-0.34771692279624195
5520,-0.3521169103759097
5530,-0.3563891380695684
5540,-0.3605321644323453
5550,-0.36454459479416895
5560,-0.368425081727291
5570,-0.37217232549673873
5580,-0.37578507449355025
5590,-0.3792621256506507
5600,-0.38260232484122614
5610,-0.3858045672594724
5620,-0.38886779778358893
5630,-0.3917910113208968
5640,-0.3945732531349777
5650,-0.39721361915472053
5660,-0.3997112562651779
5670,-0.40206536258014486
5680,-0.40427518769636767
5690,-0.4063400329293071
5700,-0.4082592515303849
5710,-0.41003224888564116
5720,-0.41165848269575006
5730,-0.4131374631373377
5740,-0.41446875300555513
5750,-0.41565196783787056
5760,-0.41668677601904414
5770,-0.41757289886726223
5780,-0.4183101107014107
5790,-0.4188982388894737
5800,-0.4193371638780546
5810,-0.4196268192030169
5820,-0.41976719148125535
5830,-0.4197583203836091
5840,-0.41960029858894055
5850,-0.4192932717194043
5860,-0.4188374382569433
5870,-0.4182330494410521
5880,-0.41748040914785356
5890,-0.41657987375054545
5900,-0.4155318519612763
5910,-0.4143368046545173
5920,-0.41299524467200616
5930,-0.4115077366093413
5940,-0.40987489658431403
5950,-0.40809739198707184
5960,-0.40617594121221234
5970,-0.4041113133729156
5980,-0.4019043279972234
5990,-0.39955585470658767
6000,-0.3970668128768127
6010,-0.39443817128151815
6020,-0.39167094771826616
6030,-0.38876620861749145
6040,-0.3857250686343834
6050,-0.3825486902238797
6060,-0.37923828319892905
6070,-0.3757951042721874
6080,-0.37222045658132974
6090,-0.36851568919814465
6100,-0.3646821966216053
6110,-0.36072141825509985
6120,-0.35663483786802025
6130,-0.35242398304190903
6140,-0.3480904246013705
6150,-0.34363577602995576
6160,-0.3390616928712436
6170,-0.3343698721153291
6180,-0.32956205157096097
6190,-0.3246400092235425
6200,-0.31960556257924577
6210,-0.3144605679954784
6220,-0.30920691999793953
6230,-0.3038465505845315
6240,-0.2983814285163665
6250,-0.292813558596139
6260,-0.28714498093412316
6270,-0.28137777020206517
6280,-0.275514034875239
6290,-0.26955591646295174
6300,-0.2635055887277627
6310,-0.2573652568937223
6320,-0.2511371568438944
6330,-0.24482355430747127
6340,-0.23842674403677364
6350,-0.23194904897442656
6360,-0.22539281941101677
6370,-0.21876043213354712
6380,-0.21205428956497127
6390,-0.20527681889515023
6400,-0.19843047120352073
6410,-0.19151772057380131
6420,-0.1845410632010609
6430,-0.17750301649145983
6440,-0.17040611815499693
6450,-0.16325292529158597
6460,-0.1560460134707873
6470,-0.1487879758055351
6480,-0.14148142202017974
6490,-0.13412897751318997
6500,-0.12673328241484777
6510,-0.11929699064027013
6520,-0.11182276893810761
6530,-0.10431329593524707
6540,-0.09677126117786605
6550,-0.08919936416919197
6560,-0.08160031340428728
6570,-0.07397682540222533
6580,-0.0663316237359993
6590,-0.05866743806049644
6600,-0.05098700313890505
6610,-0.0432930578678825
6620,-0.035588344301842635
6630,-0.02787560667670663
6640,-0.020157590433460538
6650,-0.012437041241877686
6660,-0.004716704024738134
6670,0.0030006780170974616
6680,0.010712364378418002
6690,0.018415618221849415
6700,0.026107707348159235
6710,0.033785905164323046
6720,0.04144749164902896
6730,0.04908975431525765
6740,0.05670998916961133
6750,0.06430550166805635
6760,0.0718736076677211
6770,0.07941163437443718
6780,0.0869169212856785
6790,0.09438682112856112
6800,0.1018187007925861
6810,0.10920994225678711
6820,0.11655794351095991
6830,0.12386011947065337
6840,0.13111390288558983
6850,0.1383167452412143
6860,0.14546611765303144
6870,0.15255951175344487
6880,0.15959444057076672
6890,0.16656843940009478
6900,0.1734790666657602
6910,0.18032390477503993
6920,0.18710056096282507
6930,0.19380666812697647
6940,0.20043988565404436
6950,0.20699790023508957
6960,0.21347842667131256
6970,0.21987920866920546
6980,0.22619801962495847
6990,0.2324326633978521
7000,0.23858097507234857
7010,0.2446408217086423
7020,0.2506101030813891
7030,0.25648675240637336
7040,0.262268737054854
7050,0.267954059255345
7060,0.2735407567825911
7070,0.27902690363349525
7080,0.2844106106897725
7090,0.28969002636710134
7100,0.2948633372505432
7110,0.29992876871602064
7120,0.3048845855376431
7130,0.3097290924806593
7140,0.31446063487985315
7150,0.31907759920316925
7160,0.3235784136003891
7170,0.3279615484366648
7180,0.33222551681073265
7190,0.33636887505763036
7200,0.3403902232357511
7210,0.34428820559806494
7220,0.34806151104735933
7230,0.35170887357533365
7240,0.35522907268541537
7250,0.3586209337991471
7260,0.36188332864601236
7270,0.3650151756365762
7280,0.36801544021881044
7290,0.3708831352174928
7300,0.3736173211565699
7310,0.3762171065643732
7320,0.37868164826159645
7330,0.3810101516319417
7340,0.38320187087534285
7350,0.3852561092436948
7360,0.3871722192590089
7370,0.38894960291393094
7380,0.39058771185456015
7390,0.3920860475455139
7400,0.39344416141719185
7410,0.39466165499519673
7420,0.3957381800118766
